temperature	helm_energy	Cv
0.0	-8.85778475275	0.0
2.0	-8.85778475275	0.0
4.0	-8.857784752875	5.05e-06
6.0	-8.857784752875	3.07e-05
8.0	-8.857784753125	8.01625e-05
10.0	-8.857784753875	0.0001593
12.0	-8.857784755125	0.0002764125
14.0	-8.857784757375	0.00043975
16.0	-8.857784760874999	0.0006574
18.0	-8.857784766	0.000937475
20.0	-8.85778477325	0.00128815
22.0	-8.857784783125	0.0017177625
24.0	-8.857784796	0.0022347625
26.0	-8.85778481275	0.002847775
28.0	-8.85778483375	0.0035656375
30.0	-8.85778486	0.0043974125
32.0	-8.857784892	0.0053524125
34.0	-8.85778493075	0.006440225
36.0	-8.857784977	0.0076708125
38.0	-8.857785031875	0.0090544875
40.0	-8.85778509625	0.0106020125
42.0	-8.857785171125	0.0123246875
44.0	-8.857785257875	0.0142343875
46.0	-8.857785357625	0.0163436625
48.0	-8.8577854715	0.0186658375
50.0	-8.857785600875	0.021215125
52.0	-8.857785747375	0.02400665
54.0	-8.85778591225	0.0270566
56.0	-8.857786097125	0.0303822125
58.0	-8.857786303875	0.0340018625
60.0	-8.857786534	0.0379350625
62.0	-8.857786789375	0.042202475
64.0	-8.857787072	0.046825825
66.0	-8.857787383875	0.0518278875
68.0	-8.85778772725	0.057232375
70.0	-8.85778810425	0.063063825
72.0	-8.857788517374999	0.0693475
74.0	-8.857788969	0.076109225
76.0	-8.85778946175	0.0833752125
78.0	-8.857789998375	0.0911719125
80.0	-8.85779058175	0.0995258875
82.0	-8.857791215	0.10846355
84.0	-8.857791901	0.1180111
86.0	-8.857792643375	0.1281942875
88.0	-8.85779344525	0.1390383125
90.0	-8.8577943105	0.15056765
92.0	-8.857795242625	0.1628059625
94.0	-8.8577962455	0.175775925
96.0	-8.857797323125	0.1894992125
98.0	-8.857798479875	0.203996325
100.0	-8.85779971975	0.2192866
102.0	-8.8578010475	0.235388075
104.0	-8.857802467499999	0.2523175375
106.0	-8.8578039845	0.2700904375
108.0	-8.8578056035	0.288720875
110.0	-8.857807329375	0.308221625
112.0	-8.857809167375	0.32860415
114.0	-8.857811122875	0.3498785625
116.0	-8.857813200999999	0.37205375
118.0	-8.8578154075	0.3951372875
120.0	-8.857817747875	0.419135575
122.0	-8.857820228	0.44405385
124.0	-8.85782285375	0.469896225
126.0	-8.857825631125	0.496665725
128.0	-8.857828566125	0.5243644125
130.0	-8.857831664999999	0.5529933625
132.0	-8.857834934	0.582552725
134.0	-8.857838379624999	0.6130418625
136.0	-8.85784200825	0.6444592875
138.0	-8.857845826375	0.6768028
140.0	-8.857849840625	0.7100695125
142.0	-8.857854057875	0.7442559
144.0	-8.85785848475	0.77935785
146.0	-8.857863128125	0.815370675
148.0	-8.857867994875	0.8522892125
150.0	-8.857873092	0.8901078375
152.0	-8.857878426375	0.9288204875
154.0	-8.85788400525	0.9684207
156.0	-8.857889835749999	1.008901675
158.0	-8.857895924875	1.05025625
160.0	-8.857902279875	1.0924769875
162.0	-8.857908908	1.13555615
164.0	-8.857915816625	1.17948575
166.0	-8.85792301275	1.22425755
168.0	-8.857930504	1.2698631125
170.0	-8.857938297625	1.3162937625
172.0	-8.857946400874999	1.36354065
174.0	-8.85795482125	1.4115947625
176.0	-8.857963566125	1.4604468875
178.0	-8.857972643	1.5100876625
180.0	-8.857982059125	1.5605075875
182.0	-8.857991822125	1.6116970125
184.0	-8.85800193925	1.6636461625
186.0	-8.858012418125	1.7163451
188.0	-8.858023266	1.7697837875
190.0	-8.8580344905	1.823952075
192.0	-8.858046099	1.878839675
194.0	-8.858058098875	1.9344362
196.0	-8.858070497625	1.9907311625
198.0	-8.858083302625	2.0477139375
200.0	-8.858096521375	2.1053738375
202.0	-8.858110161125	2.1637000625
204.0	-8.85812422925	2.2226816875
206.0	-8.858138733375	2.28230775
208.0	-8.8581536805	2.3425671625
210.0	-8.85816907825	2.4034487375
212.0	-8.85818493375	2.4649412625
214.0	-8.858201254375	2.527033375
216.0	-8.85821804725	2.5897136875
218.0	-8.85823531975	2.652970725
220.0	-8.858253079	2.7167929375
222.0	-8.85827133225	2.781168725
224.0	-8.858290086625	2.846086425
226.0	-8.858309349125	2.9115343
228.0	-8.858329127	2.9775005875
230.0	-8.85834942725	3.043973475
232.0	-8.858370256875	3.1109411
234.0	-8.858391622875	3.178391575
236.0	-8.85841353225	3.24631295
238.0	-8.85843599175	3.3146933
240.0	-8.858459008375	3.3835206375
242.0	-8.858482588875	3.452782975
244.0	-8.858506740125	3.5224683375
246.0	-8.858531468875	3.5925647
248.0	-8.85855678175	3.663060075
250.0	-8.858582685375	3.7339424625
252.0	-8.858609186375	3.8051998875
254.0	-8.8586362915	3.876820375
256.0	-8.858664007125	3.9487920125
258.0	-8.85869233975	4.0211028625
260.0	-8.85872129575	4.093741075
262.0	-8.8587508815	4.1666947875
264.0	-8.8587811035	4.2399522375
266.0	-8.858811967874999	4.3135016625
268.0	-8.858843480875	4.387331375
270.0	-8.858875648625	4.4614297625
272.0	-8.8589084775	4.5357852625
274.0	-8.85894197325	4.6103863875
276.0	-8.858976142125	4.685221725
278.0	-8.859010989875	4.7602799375
280.0	-8.859046522749999	4.8355497625
282.0	-8.85908274625	4.9110200625
284.0	-8.8591196665	4.98667975
286.0	-8.859157289	5.06251785
288.0	-8.8591956195	5.1385235
290.0	-8.85923466375	5.214685925
292.0	-8.85927442725	5.2909944625
294.0	-8.8593149155	5.3674385625
296.0	-8.859356134	5.4440077875
298.0	-8.85939808825	5.520691825
300.0	-8.8594407835	5.5974804625
302.0	-8.859484225125	5.674363625
304.0	-8.85952841825	5.751331375
306.0	-8.859573368125	5.8283738875
308.0	-8.859619079875	5.90548145
310.0	-8.8596655585	5.9826445125
312.0	-8.859712809125	6.05985365
314.0	-8.85976083675	6.137099575
316.0	-8.859809646	6.2143731125
318.0	-8.859859242	6.291665275
320.0	-8.859909629375	6.3689671625
322.0	-8.859960812875	6.4462700625
324.0	-8.860012797125	6.5235653625
326.0	-8.86006558675	6.6008446375
328.0	-8.86011918625	6.6780995625
330.0	-8.860173600125	6.755322
332.0	-8.860228833	6.8325039125
334.0	-8.860284888875	6.90963745
336.0	-8.860341772375	6.9867148875
338.0	-8.8603994875	7.0637286375
340.0	-8.860458038625	7.1406712875
342.0	-8.860517429875	7.2175355375
344.0	-8.86057766525	7.2943142625
346.0	-8.86063874875	7.371000475
348.0	-8.860700684375	7.4475873125
350.0	-8.860763476125	7.524068075
352.0	-8.860827127625	7.600436225
354.0	-8.860891643	7.676685325
356.0	-8.860957025625	7.7528091125
358.0	-8.861023279375	7.8288014625
360.0	-8.861090407875	7.9046564
362.0	-8.86115841475	7.98036805
364.0	-8.861227303375	8.055930725
366.0	-8.861297077125	8.13133885
368.0	-8.86136773975	8.2065869875
370.0	-8.86143929425	8.2816698625
372.0	-8.861511744125	8.3565823
374.0	-8.8615850925	8.4313192625
376.0	-8.861659342625	8.505875875
378.0	-8.86173449775	8.5802473625
380.0	-8.861810560624999	8.6544291
382.0	-8.861887534625	8.728416575
384.0	-8.861965422625	8.8022054125
386.0	-8.862044227375	8.87579135
388.0	-8.862123952	8.9491702625
390.0	-8.86220459925	9.0223381375
392.0	-8.86228617175	9.0952910875
394.0	-8.862368672375	9.16802535
396.0	-8.86245210375	9.2405372625
398.0	-8.862536468625	9.3128233
400.0	-8.862621769375	9.384880025
402.0	-8.8627080085	9.4567041375
404.0	-8.86279518875	9.528292425
406.0	-8.86288331225	9.5996418125
408.0	-8.862972381625	9.6707493125
410.0	-8.863062399124999	9.74161205
412.0	-8.863153367	9.812227225
414.0	-8.8632452875	9.8825922
416.0	-8.86333816275	9.952704375
418.0	-8.863431995125	10.0225612875
420.0	-8.8635267865	10.09216055
422.0	-8.863622539125	10.1614999
424.0	-8.863719254875	10.2305771375
426.0	-8.86381693575	10.299390175
428.0	-8.86391558375	10.3679369875
430.0	-8.864015200625	10.436215675
432.0	-8.864115788374999	10.5042243875
434.0	-8.864217348624999	10.5719614
436.0	-8.864319883375	10.6394250375
438.0	-8.86442339425	10.706613725
440.0	-8.86452788275	10.7735259625
442.0	-8.86463335075	10.8401603125
444.0	-8.86473979975	10.90651545
446.0	-8.86484723125	10.9725900875
448.0	-8.864955646875	11.03838305
450.0	-8.865065048125	11.1038931875
452.0	-8.865175436374999	11.169119475
454.0	-8.865286812999999	11.2340609
456.0	-8.865399179375	11.2987165625
458.0	-8.865512536875	11.3630856125
460.0	-8.86562688675	11.4271672625
462.0	-8.865742230375	11.4909607875
464.0	-8.865858568875	11.5544655375
466.0	-8.865975903375	11.6176808875
468.0	-8.86609423525	11.680606325
470.0	-8.86621356525	11.74324135
472.0	-8.866333894875	11.805585525
474.0	-8.866455224875	11.8676385125
476.0	-8.866577556375	11.92939995
478.0	-8.86670089025	11.9908696125
480.0	-8.866825227625	12.05204725
482.0	-8.866950569375	12.1129327125
484.0	-8.86707691625	12.173525875
486.0	-8.86720426925	12.233826675
488.0	-8.86733262925	12.2938350875
490.0	-8.86746199675	12.3535511375
492.0	-8.867592372875	12.4129748625
494.0	-8.867723758	12.4721064
496.0	-8.867856153125	12.530945875
498.0	-8.867989558875	12.5894934875
500.0	-8.86812397575	12.647749475
502.0	-8.868259404375	12.705714075
504.0	-8.8683958455	12.7633876
506.0	-8.8685332995	12.8207704
508.0	-8.868671767124999	12.8778628375
510.0	-8.868811248625	12.934665325
512.0	-8.868951744625	12.9911783
514.0	-8.869093255625	13.0474022375
516.0	-8.869235782	13.103337625
518.0	-8.869379324	13.1589850125
520.0	-8.86952388225	13.2143449625
522.0	-8.869669457	13.2694180625
524.0	-8.8698160485	13.324204925
526.0	-8.869963657125	13.3787062
528.0	-8.870112283125	13.4329225625
530.0	-8.870261926875	13.4868546875
532.0	-8.870412588375	13.540503325
534.0	-8.870564268	13.5938692
536.0	-8.870716965875	13.6469530875
538.0	-8.87087068225	13.6997557625
540.0	-8.871025417125	13.75227805
542.0	-8.871181170625	13.804520775
544.0	-8.871337943	13.856484775
546.0	-8.87149573425	13.908170925
548.0	-8.871654544375	13.9595801125
550.0	-8.871814373374999	14.01071325
552.0	-8.8719752215	14.06157125
554.0	-8.872137088375	14.1121550375
556.0	-8.872299974375	14.1624655875
558.0	-8.872463879125	14.2125038625
560.0	-8.87262880275	14.2622708375
562.0	-8.872794745125	14.3117675125
564.0	-8.872961706	14.3609949
566.0	-8.8731296855	14.4099540375
568.0	-8.873298683375	14.458645925
570.0	-8.873468699375	14.50707165
572.0	-8.8736397335	14.5552322375
574.0	-8.8738117855	14.6031287875
576.0	-8.873984855	14.65076235
578.0	-8.874158942	14.6981340375
580.0	-8.874334046125	14.7452449375
582.0	-8.87451016725	14.7920961625
584.0	-8.874687305	14.8386888375
586.0	-8.874865459	14.8850240625
588.0	-8.875044629125	14.9311029875
590.0	-8.875224815	14.9769267625
592.0	-8.875406016125	15.0224965
594.0	-8.875588232375	15.0678133875
596.0	-8.87577146325	15.1128785625
598.0	-8.8759557085	15.1576932
600.0	-8.876140967625	15.20225845
602.0	-8.876327240125	15.2465755125
604.0	-8.87651452575	15.29064555
606.0	-8.876702824	15.3344697625
608.0	-8.876892134375	15.3780493125
610.0	-8.877082456625	15.4213854125
612.0	-8.87727379	15.46447925
614.0	-8.877466134125	15.5073320125
616.0	-8.877659488499999	15.5499449125
618.0	-8.8778538525	15.5923191375
620.0	-8.878049225875	15.6344559125
622.0	-8.878245607875	15.676356425
624.0	-8.878442998	15.7180219
626.0	-8.878641395625	15.759453525
628.0	-8.878840800375	15.8006525375
630.0	-8.879041211375	15.841620125
632.0	-8.87924262825	15.8823575125
634.0	-8.879445050375	15.9228659
636.0	-8.879648477125	15.9631465125
638.0	-8.87985290775	16.0032005625
640.0	-8.880058341875	16.04302925
642.0	-8.880264778499999	16.0826338
644.0	-8.88047221725	16.1220154125
646.0	-8.880680657375	16.1611753125
648.0	-8.880890098125	16.2001147
650.0	-8.881100539	16.238834775
652.0	-8.881311979125	16.2773367625
654.0	-8.88152441775	16.31562185
656.0	-8.881737854375	16.3536912625
658.0	-8.88195228825	16.391546175
660.0	-8.882167718375	16.4291878125
662.0	-8.882384144375	16.46661735
664.0	-8.882601565249999	16.503836
666.0	-8.882819980375	16.54084495
668.0	-8.883039389	16.5776453875
670.0	-8.883259790124999	16.6142385125
672.0	-8.88348118325	16.6506255
674.0	-8.8837035675	16.686807525
676.0	-8.883926942125	16.722785775
678.0	-8.884151306125	16.758561425
680.0	-8.884376658875	16.79413565
682.0	-8.8846029995	16.829509625
684.0	-8.88483032725	16.8646845
686.0	-8.88505864125	16.8996614375
688.0	-8.885287940625	16.9344416125
690.0	-8.8855182245	16.969026175
692.0	-8.885749492124999	17.0034162625
694.0	-8.885981742625	17.0376130375
696.0	-8.886214975125	17.0716176375
698.0	-8.88644918875	17.1054312
700.0	-8.886684382624999	17.1390548625
702.0	-8.886920555875	17.17248975
704.0	-8.887157707625	17.205737
706.0	-8.887395836875	17.238797725
708.0	-8.887634942875	17.2716730375
710.0	-8.88787502475	17.3043640625
712.0	-8.8881160815	17.3368719125
714.0	-8.888358112125	17.369197675
716.0	-8.888601116	17.4013424625
718.0	-8.888845091875	17.4333073625
720.0	-8.889090039	17.4650934625
722.0	-8.889335956375	17.49670185
724.0	-8.889582843125	17.528133625
726.0	-8.88983069825	17.559389825
728.0	-8.890079520875	17.59047155
730.0	-8.89032931	17.6213798625
732.0	-8.890580064749999	17.6521158125
734.0	-8.890831784	17.6826804625
736.0	-8.891084466875	17.7130748625
738.0	-8.8913381125	17.74330005
740.0	-8.89159271975	17.773357075
742.0	-8.89184828775	17.803246975
744.0	-8.8921048155	17.8329707625
746.0	-8.892362302	17.8625294875
748.0	-8.89262074625	17.89192415
750.0	-8.89288014725	17.9211557875
752.0	-8.893140504125	17.950225375
754.0	-8.89340181575	17.97913395
756.0	-8.89366408125	18.0078824875
758.0	-8.8939272995	18.036472
760.0	-8.894191469499999	18.0649034625
762.0	-8.894456590375	18.0931778625
764.0	-8.894722661	18.121296175
766.0	-8.894989680375	18.149259375
768.0	-8.895257647375	18.1770684375
770.0	-8.89552656125	18.2047243125
772.0	-8.895796420749999	18.2322279625
774.0	-8.896067225	18.2595803375
776.0	-8.896338972875	18.286782375
778.0	-8.89661166325	18.3138350375
780.0	-8.896885295375	18.3407392375
782.0	-8.897159868	18.367495925
784.0	-8.89743538	18.394106
786.0	-8.897711830625	18.4205704125
788.0	-8.897989218625	18.44689005
790.0	-8.898267543125	18.473065825
792.0	-8.898546802875	18.4990986625
794.0	-8.898826996875	18.5249894375
796.0	-8.899108124125	18.55073905
798.0	-8.899390183625	18.5763483875
800.0	-8.899673174375	18.6018183375
802.0	-8.899957095125	18.627149775
804.0	-8.900241944875	18.6523435625
806.0	-8.900527722625	18.6774005875
808.0	-8.90081442725	18.7023216875
810.0	-8.90110205775	18.727107725
812.0	-8.901390613125	18.7517595625
814.0	-8.901680092125	18.7762780375
816.0	-8.901970493875	18.800664
818.0	-8.902261817125	18.8249182625
820.0	-8.902554061	18.849041675
822.0	-8.902847224375	18.87303505
824.0	-8.903141306125	18.896899225
826.0	-8.903436305125	18.920635
828.0	-8.903732220375	18.9442432
830.0	-8.904029050875	18.9677246125
832.0	-8.9043267955	18.9910800375
834.0	-8.904625453125	19.014310275
836.0	-8.904925022625	19.037416125
838.0	-8.905225503125	19.0603983625
840.0	-8.905526893375	19.0832577625
842.0	-8.905829192375	19.1059951125
844.0	-8.906132399	19.128611175
846.0	-8.906436512125	19.1511067125
848.0	-8.906741530875	19.1734824875
850.0	-8.907047454	19.19573925
852.0	-8.907354280375	19.2178777625
854.0	-8.907662009	19.2398987625
856.0	-8.907970638875	19.2618029875
858.0	-8.908280168875	19.283591175
860.0	-8.908590597749999	19.3052640625
862.0	-8.908901924625	19.326822375
864.0	-8.90921414825	19.3482668375
866.0	-8.90952726775	19.36959815
868.0	-8.909841281875	19.3908170375
870.0	-8.9101561895	19.4119242
872.0	-8.91047198975	19.43292035
874.0	-8.91078868125	19.4538061875
876.0	-8.91110626325	19.4745824
878.0	-8.9114247345	19.495249675
880.0	-8.911744093875	19.5158087
882.0	-8.91206434025	19.53626015
884.0	-8.91238547275	19.5566047125
886.0	-8.912707490125	19.5768430375
888.0	-8.91303039125	19.5969758125
890.0	-8.91335417525	19.6170037
892.0	-8.91367884075	19.6369273375
894.0	-8.914004387	19.6567474
896.0	-8.914330812625	19.676464525
898.0	-8.91465811675	19.6960793625
900.0	-8.914986298125	19.71559255
902.0	-8.915315355875	19.735004725
904.0	-8.915645288624999	19.7543165125
906.0	-8.915976095625	19.77352855
908.0	-8.9163077755	19.7926414625
910.0	-8.916640327375	19.8116558625
912.0	-8.91697375	19.8305723625
914.0	-8.9173080425	19.849391575
916.0	-8.917643203625	19.8681141125
918.0	-8.917979232375	19.886740575
920.0	-8.918316127625	19.9052715625
922.0	-8.91865388825	19.923707675
924.0	-8.918992513375	19.9420494875
926.0	-8.91933200175	19.9602976
928.0	-8.919672352375	19.9784525875
930.0	-8.920013564	19.996515025
932.0	-8.920355635875	20.0144855
934.0	-8.920698566625	20.0323645875
936.0	-8.921042355375	20.0501528375
938.0	-8.921387000875	20.067850825
940.0	-8.921732502125	20.0854591
942.0	-8.922078858125	20.102978225
944.0	-8.922426067875	20.12040875
946.0	-8.92277413	20.1377512125
948.0	-8.92312304375	20.1550061875
950.0	-8.923472807875	20.1721741875
952.0	-8.92382342125	20.18925575
954.0	-8.924174883125	20.206251425
956.0	-8.924527192	20.223161725
958.0	-8.92488034725	20.2399871875
960.0	-8.925234347375	20.2567283375
962.0	-8.925589191625	20.2733856875
964.0	-8.925944878875	20.28995975
966.0	-8.926301408	20.3064510375
968.0	-8.926658778	20.322860075
970.0	-8.92701698775	20.3391873375
972.0	-8.927376036375	20.35543335
974.0	-8.9277359225	20.3715986
976.0	-8.92809664525	20.3876835875
978.0	-8.928458203625	20.4036888
980.0	-8.9288205965	20.4196147375
982.0	-8.92918382275	20.4354618625
984.0	-8.9295478815	20.4512306625
986.0	-8.929912771625	20.4669216375
988.0	-8.930278492	20.4825352375
990.0	-8.9306450415	20.4980719375
992.0	-8.931012419375	20.5135322125
994.0	-8.931380624375	20.528916525
996.0	-8.931749655499999	20.5442253375
998.0	-8.932119511625	20.5594591125
1000.0	-8.932490191874999	20.5746183
