temperature 	 Volume_T	Volume_0	Volume_thermal_expansion	Linear_thermal_expansion	Cv_calc	Linear_expansion_factor	phi
0.0	46.124130088785044	45.64128985291565	0	0.0	0.0	1.0	0
2.0	46.124130088785044	45.64128985291565	0.0	0.0	0.0	1.0	nan
4.0	46.12413014283302	45.64128985291565	5.858969383707988e-10	1.9529897945693294e-10	6.514568818080687e-06	1.000000000781196	8.427599122568731e-11
6.0	46.12413006532743	45.64128985291565	-8.401848366778162e-10	-2.8006161222593874e-10	3.7097755913554435e-05	0.9999999983196304	4.564995836457355e-11
8.0	46.12413011444423	45.64128985291565	5.324414731172456e-10	1.7748049103908185e-10	9.57852282954667e-05	1.000000001419844	9.467216256386088e-12
10.0	46.124130162025224	45.64128985291565	5.157928919439894e-10	1.719309639813298e-10	0.00019000518891027442	1.0000000017193096	5.5985084951192665e-12
12.0	46.12413019907235	45.64128985291565	4.0160239957670984e-10	1.3386746652556996e-10	0.0003295523057918893	1.0000000016064097	2.3482081282043045e-12
14.0	46.12413012421398	45.64128985291565	-8.114881499792558e-10	-2.7049604999308527e-10	0.0005241950319091009	0.9999999962130554	7.032125234348181e-12
16.0	46.12413017589836	45.64128985291565	5.60274861337078e-10	1.8675828711235934e-10	0.0007835807865750799	1.0000000029881326	2.562864084175118e-12
18.0	46.124130261841124	45.64128985291565	9.316464664496533e-10	3.1054882214988444e-10	0.0011173733854170243	1.0000000055898788	5.590666198664016e-12
20.0	46.12413028694573	45.64128985291565	2.7214176695406924e-10	9.071392231802308e-11	0.001535321932046176	1.0000000018142785	3.8575187046790986e-13
22.0	46.12413037452103	45.64128985291565	9.493436638513713e-10	3.164478879504571e-10	0.0020473244062114955	1.0000000069618535	3.8723092049958264e-12
24.0	46.12413052163674	45.64128985291565	1.5947802710774943e-09	5.315934236924981e-10	0.002663455292295351	1.0000000127582422	9.163357694808201e-12
26.0	46.12413056351127	45.64128985291565	4.5393306459372503e-10	1.5131102153124168e-10	0.003394001672231294	1.0000000039340866	6.311491954513293e-13
28.0	46.124130819039706	45.64128985291565	2.770008137236945e-09	9.233360457456483e-10	0.004249481873422376	1.0000000258534092	2.0214883524156523e-11
30.0	46.12413108162079	45.64128985291565	2.8464610340430325e-09	9.488203446810108e-10	0.00524068222233584	1.0000000284646104	1.8545178602118554e-11
32.0	46.124131372456446	45.64128985291565	3.1527494497884247e-09	1.0509164832628083e-09	0.006378708084172162	1.0000000336293275	1.9938077348171525e-11
34.0	46.124131740733944	45.64128985291565	3.992243175409608e-09	1.330747725136536e-09	0.007675003500326068	1.0000000452454227	2.823068532299897e-11
36.0	46.12413215409269	45.64128985291565	4.480937987545416e-09	1.493645995848472e-09	0.00914142863449369	1.000000053771256	3.161647231715402e-11
38.0	46.12413272389397	45.64128985291565	6.176823859075582e-09	2.0589412863585273e-09	0.010790301434057617	1.0000000782397689	5.3723905275543984e-11
40.0	46.12413325070095	45.64128985291565	5.710752130975282e-09	1.9035840436584275e-09	0.012634473866527931	1.0000000761433618	4.128350642338374e-11
42.0	46.12413401214782	45.64128985291565	8.254321722020271e-09	2.751440574006757e-09	0.014687437140555655	1.000000115560504	7.790282142238691e-11
44.0	46.12413475578496	45.64128985291565	8.061258531703148e-09	2.6870861772343824e-09	0.016963391489846397	1.0000001182317917	6.739579971084435e-11
46.0	46.12413567334402	45.64128985291565	9.946626297209562e-09	3.315542099069854e-09	0.019477351890831933	1.0000001525149365	9.342576722655493e-11
48.0	46.124136692814254	45.64128985291565	1.105137492328439e-08	3.6837916410947963e-09	0.02224527005946211	1.0000001768219988	1.0537154287391326e-10
50.0	46.12413790087092	45.64128985291565	1.3095710325194736e-08	4.365236775064912e-09	0.025284124625097548	1.0000002182618388	1.3560239873062537e-10
52.0	46.124139223596515	45.64128985291565	1.4338756831347603e-08	4.779585610449201e-09	0.02861198863695658	1.0000002485384518	1.4940512030047455e-10
54.0	46.12414074869647	45.64128985291565	1.6532557350148932e-08	5.510852450049644e-09	0.032248166143657594	1.0000002975860323	1.8300207319982294e-10
56.0	46.12414238407756	45.64128985291565	1.7728038535458125e-08	5.909346178486042e-09	0.03621316379972744	1.000000330923386	1.9432565682972354e-10
58.0	46.12414427470012	45.64128985291565	2.049493460117728e-08	6.8316448670590935e-09	0.04052881948622483	1.0000003962354023	2.403501200234183e-10
60.0	46.12414642071533	45.64128985291565	2.3263469049514957e-08	7.754489683171652e-09	0.04521819736716071	1.000000465269381	2.871271167803714e-10
62.0	46.12414871046887	45.64128985291565	2.4821635992949627e-08	8.273878664316543e-09	0.05030561777585277	1.0000005129804772	3.036150388108438e-10
64.0	46.124151261118676	45.64128985291565	2.7649830670900898e-08	9.216610223633633e-09	0.05581660923805293	1.0000005898630544	3.5050060461961245e-10
66.0	46.124154160536925	45.64128985291565	3.143058646422395e-08	1.0476862154741317e-08	0.06177778507772313	1.0000006914729023	4.219916857369175e-10
68.0	46.12415732506298	45.64128985291565	3.430443456258636e-08	1.143481152086212e-08	0.06821669339644709	1.0000007775671833	4.690359505861042e-10
70.0	46.124160698883486	45.64128985291565	3.657324816767078e-08	1.2191082722556927e-08	0.07516176044997228	1.0000008533757905	4.980988589156392e-10
72.0	46.124164557107655	45.64128985291565	4.182432926838298e-08	1.3941443089460992e-08	0.08264210908015293	1.0000010037839024	6.093635816117907e-10
74.0	46.12416867313459	45.64128985291565	4.4618986335002285e-08	1.4872995445000762e-08	0.09068725425733279	1.000001100601663	6.495496092308613e-10
76.0	46.12417324156113	45.64128985291565	4.9523131490449604e-08	1.6507710496816536e-08	0.0993271779487251	1.0000012545859978	7.503246176035263e-10
78.0	46.12417812313558	45.64128985291565	5.2917744695536514e-08	1.7639248231845504e-08	0.10859186270753997	1.0000013758613622	8.042434304677293e-10
80.0	46.12418349993013	45.64128985291565	5.8286074389498804e-08	1.9428691463166267e-08	0.11851136069035083	1.0000015542953171	9.169532926160544e-10
82.0	46.12418932512156	45.64128985291565	6.314682437330928e-08	2.104894145776976e-08	0.12911537649635238	1.0000017260131995	1.0125735308260285e-09
84.0	46.12419557977902	45.64128985291565	6.780235651148293e-08	2.2600785503827644e-08	0.1404332528532808	1.0000018984659824	1.0994781935376255e-09
86.0	46.12420238593835	45.64128985291565	7.378079163491886e-08	2.459359721163962e-08	0.15249380885964947	1.00000211504936	1.227497560887912e-09
88.0	46.12420972092082	45.64128985291565	7.951338007888751e-08	2.6504460026295835e-08	0.1653250337831267	1.0000023323924823	1.3455886936674743e-09
90.0	46.12421754957637	45.64128985291565	8.486492887682244e-08	2.8288309625607478e-08	0.17895409605576473	1.0000025459478663	1.4482558425865582e-09
92.0	46.12422612074682	45.64128985291565	9.29139929361021e-08	3.0971330978700704e-08	0.193407311003142	1.00000284936245	1.641969891630588e-09
94.0	46.12423521355551	45.64128985291565	9.85686856327984e-08	3.2856228544266135e-08	0.20870956350835876	1.0000030884854831	1.7496513694594281e-09
96.0	46.12424504953103	45.64128985291565	1.0662480876888544e-07	3.5541602922961815e-08	0.22488498261183443	1.0000034119938805	1.940508222954003e-09
98.0	46.124255622395225	45.64128985291565	1.1461286994521232e-07	3.820428998173744e-08	0.24195612016610551	1.0000037440204181	2.1273772830330563e-09
100.0	46.124266877458034	45.64128985291565	1.2200806990793173e-07	4.0669356635977244e-08	0.2599442960001897	1.0000040669356636	2.289734913010073e-09
102.0	46.124278902923606	45.64128985291565	1.3035942234715185e-07	4.345314078238395e-08	0.2788695865038067	1.0000044322203598	2.4852630981552763e-09
104.0	46.12429182592563	45.64128985291565	1.4008893290377992e-07	4.669631096792664e-08	0.29875065962694214	1.0000048564163406	2.7316228697737623e-09
106.0	46.12430559611538	45.64128985291565	1.4927264138566907e-07	4.9757547128556353e-08	0.31960460130563695	1.0000052742999956	2.954894819029912e-09
108.0	46.12432021354258	45.64128985291565	1.584568809843088e-07	5.2818960328102935e-08	0.3414472720952543	1.0000057044477155	3.175493301987424e-09
110.0	46.12433581037537	45.64128985291565	1.6907384994115427e-07	5.635794998038476e-08	0.3642932293618441	1.0000061993744978	3.451306289962147e-09
112.0	46.12435233092869	45.64128985291565	1.790871676113315e-07	5.969572253711049e-08	0.3881553456959181	1.0000066859209242	3.7002458115391987e-09
114.0	46.124369955157846	45.64128985291565	1.9105123723247896e-07	6.368374574415965e-08	0.4130455865637546	1.000007259947015	4.028059983963373e-09
116.0	46.12438867924414	45.64128985291565	2.0297389767997237e-07	6.765796589332412e-08	0.4389741442333779	1.0000078483240435	4.353002961481793e-09
118.0	46.12440838620546	45.64128985291565	2.1362842828083335e-07	7.120947609361112e-08	0.46594993600201745	1.000008402718179	4.621155241202543e-09
120.0	46.12442924375278	45.64128985291565	2.261009739665973e-07	7.53669913221991e-08	0.49398119984073136	1.0000090440389586	4.965529940404458e-09
122.0	46.12445147365343	45.64128985291565	2.409775146858682e-07	8.032583822862274e-08	0.5230747059398031	1.000009799752264	5.415508920967279e-09
124.0	46.124474854483054	45.64128985291565	2.5345374175063906e-07	8.448458058354636e-08	0.5532352365361985	1.0000104760879924	5.757044796145415e-09
126.0	46.12449955273328	45.64128985291565	2.677347580315412e-07	8.924491934384707e-08	0.5844677841751774	1.0000112448598373	6.178884179927529e-09
128.0	46.124525606527904	45.64128985291565	2.824290222445508e-07	9.414300741485028e-08	0.6167754463340602	1.000012050304949	6.618999663186525e-09
130.0	46.12455305228506	45.64128985291565	2.9751804266882613e-07	9.917268088960872e-08	0.650160487506492	1.0000128924485157	7.0768578999417885e-09
132.0	46.124581953221856	45.64128985291565	3.132923235566727e-07	1.0443077451889089e-07	0.6846242768303303	1.0000137848622366	7.566804170137574e-09
134.0	46.12461235013834	45.64128985291565	3.2950885622036586e-07	1.0983628540678862e-07	0.7201671347502487	1.0000147180622445	8.077878575957932e-09
136.0	46.124644239312026	45.64128985291565	3.4568500480646436e-07	1.1522833493548812e-07	0.7567884248671843	1.0000156710535513	8.586525165699249e-09
138.0	46.12467784238645	45.64128985291565	3.6426377888630007e-07	1.214212596287667e-07	0.7944873778799776	1.0000167561338287	9.21544509067255e-09
140.0	46.124712983594016	45.64128985291565	3.809371600256807e-07	1.2697905334189357e-07	0.8332607496690316	1.0000177770674679	9.748692567947716e-09
142.0	46.12474985440335	45.64128985291565	3.996860570711404e-07	1.3322868569038014e-07	0.8731066259008502	1.000018918473368	1.0388479542875662e-08
144.0	46.12478862781741	45.64128985291565	4.203102909398678e-07	1.4010343031328926e-07	0.9140213474738033	1.0000201748939652	1.1128573462682853e-08
146.0	46.12482908217254	45.64128985291565	4.3853160451541223e-07	1.461772015051374e-07	0.9559992458264602	1.0000213418714197	1.17433168814077e-08
148.0	46.12487144736429	45.64128985291565	4.592449727831063e-07	1.5308165759436878e-07	0.9990367799213775	1.000022656085324	1.2492896351707828e-08
150.0	46.124915660976114	45.64128985291565	4.792816807396456e-07	1.5976056024654854e-07	1.0431272591654852	1.000023964084037	1.3207788831421468e-08
152.0	46.12496204671942	45.64128985291565	5.02827405086558e-07	1.6760913502885268e-07	1.0882659113865183	1.0000254765885244	1.4120217010378484e-08
154.0	46.12501034210609	45.64128985291565	5.235276575455703e-07	1.7450921918185677e-07	1.134443529477457	1.000026874419754	1.4876901350450563e-08
156.0	46.12506071337771	45.64128985291565	5.460299222260696e-07	1.820099740753565e-07	1.1816544388607002	1.0000283935559557	1.5738482358293745e-08
158.0	46.125113294159696	45.64128985291565	5.699806263292889e-07	1.8999354210976296e-07	1.2298906061464887	1.0000300189796534	1.6688109663742507e-08
160.0	46.12516793565707	45.64128985291565	5.923182998245377e-07	1.974394332748459e-07	1.2791422231746246	1.000031590309324	1.7547219845563052e-08
162.0	46.12522496064524	45.64128985291565	6.181548027405541e-07	2.0605160091351805e-07	1.3294026765996843	1.000033380359348	1.8618743406329606e-08
164.0	46.125284236704346	45.64128985291565	6.425557724140464e-07	2.141852574713488e-07	1.380660232900561	1.0000351263822254	1.9609957586683598e-08
166.0	46.12534597278598	45.64128985291565	6.69221693211654e-07	2.2307389773721798e-07	1.4329068679462815	1.0000370302670243	2.074572847334407e-08
168.0	46.12541010637719	45.64128985291565	6.952098662534574e-07	2.317366220844858e-07	1.4861307489272249	1.0000389317525102	2.1846570170295728e-08
170.0	46.12547669067418	45.64128985291565	7.21774579798539e-07	2.4059152659951297e-07	1.5403218056578167	1.0000409005595219	2.2990075551628434e-08
172.0	46.125545868138815	45.64128985291565	7.498834656520287e-07	2.499611552173429e-07	1.5954695011943065	1.0000429933186974	2.423973808117601e-08
174.0	46.12561762113673	45.64128985291565	7.778010706205907e-07	2.592670235401969e-07	1.6515612978638747	1.000045112462096	2.548547466899034e-08
176.0	46.12569200649051	45.64128985291565	8.063345014477516e-07	2.687781671492505e-07	1.7085857993422355	1.0000473049574183	2.6779851460767174e-08
178.0	46.12576916886093	45.64128985291565	8.364359108792832e-07	2.788119702930944e-07	1.7665314258700642	1.000049628530712	2.8188145485839372e-08
180.0	46.12584910647035	45.64128985291565	8.665179016101439e-07	2.8883930053671463e-07	1.82538454800591	1.0000519910740966	2.960577920570731e-08
182.0	46.12593179089568	45.64128985291565	8.962916339903354e-07	2.9876387799677846e-07	1.8851319849172392	1.0000543750257953	3.101218541337177e-08
184.0	46.12601740871776	45.64128985291565	9.280877237145829e-07	3.093625745715276e-07	1.9457622776510042	1.0000569227137213	3.256949061815948e-08
186.0	46.12610598333104	45.64128985291565	9.601372311708639e-07	3.200457437236213e-07	2.007260591312151	1.0000595285083327	3.415714064214079e-08
188.0	46.12619743760422	45.64128985291565	9.913504644752901e-07	3.3045015482509673e-07	2.069612159413299	1.000062124629107	3.5696848205050374e-08
190.0	46.12629205843771	45.64128985291565	1.0256734648651572e-06	3.418911549550524e-07	2.13280626812151	1.0000649593194415	3.747381299676478e-08
192.0	46.126389752756964	45.64128985291565	1.0589873463864001e-06	3.5299578212880004e-07	2.196825038476981	1.0000677751901688	3.919184176228257e-08
194.0	46.12649068725911	45.64128985291565	1.094107979011711e-06	3.647026596705703e-07	2.261656426543233	1.0000707523159762	4.105866195452214e-08
196.0	46.12659470078605	45.64128985291565	1.1274814688230495e-06	3.7582715627434985e-07	2.327282208166899	1.0000736621226298	4.280910509461731e-08
198.0	46.12670210422867	45.64128985291565	1.1642247093712217e-06	3.8807490312374056e-07	2.3936923733743964	1.0000768388308185	4.483134746975862e-08
200.0	46.126812724056315	45.64128985291565	1.19908667429377e-06	3.996955580979233e-07	2.4608663826067056	1.0000799391116195	4.672566276008024e-08
202.0	46.12692678326952	45.64128985291565	1.236365645785149e-06	4.12121881928383e-07	2.528793283372631	1.0000832486201496	4.882534570063646e-08
204.0	46.127044262713554	45.64128985291565	1.2734367128763603e-06	4.244789042921201e-07	2.5974546731115224	1.0000865936964756	5.092739443251774e-08
206.0	46.12716520846786	45.64128985291565	1.3110069834007138e-06	4.370023278002379e-07	2.6668355203345855	1.0000900224795268	5.308803773465588e-08
208.0	46.127289687584025	45.64128985291565	1.34930377364597e-06	4.4976792454865667e-07	2.7369201669260224	1.000093551728306	5.5327050785275423e-08
210.0	46.12741767528639	45.64128985291565	1.3873316991990038e-06	4.6244389973300126e-07	2.8076913135460018	1.000097113218944	5.756368739963178e-08
212.0	46.12754930770053	45.64128985291565	1.4268348497754558e-06	4.7561161659181863e-07	2.8791349428256177	1.0001008296627174	5.994328603020663e-08
214.0	46.12768463782743	45.64128985291565	1.4669121699842994e-06	4.889707233280998e-07	2.951233647754503	1.0001046397347921	6.239344519870156e-08
216.0	46.127823757054394	45.64128985291565	1.5079797312327349e-06	5.026599104109116e-07	3.0239716164464356	1.0001085745406488	6.495146077396297e-08
218.0	46.12796653965142	45.64128985291565	1.5476840808266214e-06	5.158946936088738e-07	3.0973290533815234	1.0001124650432067	6.741507104097242e-08
220.0	46.12811312435424	45.64128985291565	1.5888918786360122e-06	5.296306262120041e-07	3.171293376923527	1.0001165187377667	7.003248693208104e-08
222.0	46.12826365856436	45.64128985291565	1.6316970272358674e-06	5.438990090786224e-07	3.2458482357436194	1.0001207455800154	7.281650407758307e-08
224.0	46.12841810671175	45.64128985291565	1.674116204921694e-06	5.580387349738979e-07	3.3209740214611165	1.0001250006766342	7.559293541049772e-08
226.0	46.12857634834323	45.64128985291565	1.715229331252423e-06	5.717431104174743e-07	3.3966524427290308	1.0001292139429543	7.827636999242386e-08
228.0	46.12873863790388	45.64128985291565	1.7591000362036552e-06	5.863666787345518e-07	3.4728732258531334	1.0001336916027515	8.123767384792729e-08
230.0	46.1289050160163	45.64128985291565	1.8034105996691871e-06	6.011368665563957e-07	3.549616030281408	1.000138261479308	8.426898221918263e-08
232.0	46.12907536478822	45.64128985291565	1.84644283085481e-06	6.1548094361827e-07	3.6268611357673706	1.0001427915789194	8.720922880599206e-08
234.0	46.12924985492694	45.64128985291565	1.8913249110081998e-06	6.304416370027333e-07	3.704597172688079	1.0001475233430586	9.035297405442698e-08
236.0	46.12942850752942	45.64128985291565	1.936435158176039e-06	6.454783860586796e-07	3.7828046695656656	1.0001523328991098	9.35493958430169e-08
238.0	46.12961134104619	45.64128985291565	1.9817448718723193e-06	6.605816239574398e-07	3.8614668992337955	1.000157218426502	9.679631638073616e-08
240.0	46.12979848122346	45.64128985291565	2.0284170170429223e-06	6.76139005680974e-07	3.9405694570030945	1.0001622733613635	1.002091113857672e-07
242.0	46.129989715861335	45.64128985291565	2.0727885680267513e-06	6.909295226755838e-07	4.020088720733779	1.0001672049444874	1.0342654175455599e-07
244.0	46.13018541921922	45.64128985291565	2.1212161447175837e-06	7.070720482391946e-07	4.100020646996816	1.0001725255797704	1.0708231183000037e-07
246.0	46.130385331851194	45.64128985291565	2.166831004044632e-06	7.222770013482106e-07	4.180335178792181	1.0001776801423317	1.1048926250921413e-07
248.0	46.13058964549617	45.64128985291565	2.214523502337364e-06	7.381745007791214e-07	4.261025882758157	1.0001830672761933	1.1414213981295668e-07
250.0	46.130798309228545	45.64128985291565	2.2616633992364236e-06	7.538877997454745e-07	4.342071099074347	1.0001884719499363	1.1777385649693305e-07
252.0	46.13101138672635	45.64128985291565	2.30949285091351e-06	7.698309503045033e-07	4.423457343381293	1.0001939973994767	1.215133029627232e-07
254.0	46.131229021011414	45.64128985291565	2.3588718144517727e-06	7.862906048172575e-07	4.505170616401318	1.0001997178136235	1.2545416646426524e-07
256.0	46.13145097479237	45.64128985291565	2.405678167136237e-06	8.018927223787457e-07	4.587185702662377	1.000205284536929	1.2915901360057536e-07
258.0	46.13167758383033	45.64128985291565	2.456123026382388e-06	8.18707675460796e-07	4.669501116298767	1.000211226580269	1.3329308264006927e-07
260.0	46.13190858279851	45.64128985291565	2.503691392513489e-06	8.345637975044964e-07	4.752086028067049	1.0002169865873511	1.3715478925196582e-07
262.0	46.13214425817701	45.64128985291565	2.5543640588271606e-06	8.514546862757202e-07	4.8349392423549835	1.0002230811278043	1.4139641863416294e-07
264.0	46.13238448581127	45.64128985291565	2.6036903132074808e-06	8.678967710691603e-07	4.918034703261113	1.0002291247475623	1.455310972069064e-07
266.0	46.132629311677746	45.64128985291565	2.653514111648941e-06	8.845047038829803e-07	5.001361767057098	1.000235278251233	1.4976257057959046e-07
268.0	46.132878801990906	45.64128985291565	2.7040547751304312e-06	9.013515917101437e-07	5.084906060714927	1.0002415622265783	1.5411762007416396e-07
270.0	46.13313286110603	45.64128985291565	2.7535580015732615e-06	9.178526671910872e-07	5.168648179697327	1.0002478202201417	1.5839705651165693e-07
