temperature	helm_energy	Cv
0.0	-8.920880323625	0.0
2.0	-8.920880323625	0.0
4.0	-8.920880323625	6.525e-06
6.0	-8.92088032375	3.7125e-05
8.0	-8.920880324125	9.58625e-05
10.0	-8.920880324875	0.00019015
12.0	-8.920880326499999	0.0003298125
14.0	-8.920880329125	0.0005246
16.0	-8.920880333374999	0.0007841875
18.0	-8.9208803395	0.0011182375
20.0	-8.920880348125	0.0015365
22.0	-8.920880359875	0.0020488875
24.0	-8.920880375374999	0.0026654875
26.0	-8.92088039525	0.003396575
28.0	-8.920880420375	0.0042526875
30.0	-8.920880451624999	0.005244625
32.0	-8.92088048975	0.0063834875
34.0	-8.920880535999999	0.007680725
36.0	-8.920880591249999	0.0091482125
38.0	-8.920880656625	0.010798275
40.0	-8.920880733375	0.012643775
42.0	-8.920880822874999	0.0146982125
44.0	-8.92088092625	0.0169758
46.0	-8.920881045125	0.01949155
48.0	-8.920881180999999	0.02226145
50.0	-8.920881335375	0.025302475
52.0	-8.92088151	0.028632725
54.0	-8.920881706749999	0.0322715125
56.0	-8.920881927249999	0.036239375
58.0	-8.92088217375	0.0405581625
60.0	-8.92088244825	0.0452509625
62.0	-8.920882752874999	0.0503421375
64.0	-8.92088309	0.0558572375
66.0	-8.920883462125	0.0618229
68.0	-8.920883871625	0.068266725
70.0	-8.92088432125	0.075217175
72.0	-8.920884813999999	0.0827033625
74.0	-8.920885352625	0.0907549125
76.0	-8.920885940375	0.0994017875
78.0	-8.920886580374999	0.10867405
80.0	-8.92088727625	0.1186017125
82.0	-8.92088803125	0.1292145625
84.0	-8.920888849499999	0.1405419625
86.0	-8.9208897345	0.1526126875
88.0	-8.920890690624999	0.1654547875
90.0	-8.920891721875	0.1790954125
92.0	-8.920892832875	0.19356075
94.0	-8.920894028	0.2088758625
96.0	-8.920895311874999	0.225064625
98.0	-8.92089668975	0.242149625
100.0	-8.920898166375	0.2601521625
102.0	-8.920899747	0.27909215
104.0	-8.920901437249999	0.2989881125
106.0	-8.920903242375	0.3198571625
108.0	-8.92090516825	0.341715025
110.0	-8.92090722075	0.3645759875
112.0	-8.920909405749999	0.3884529875
114.0	-8.9209117295	0.4133575875
116.0	-8.920914198375	0.439300025
118.0	-8.92091681875	0.4662892375
120.0	-8.920919597125	0.4943329375
122.0	-8.920922540374999	0.5234376
124.0	-8.920925655125	0.5536085625
126.0	-8.920928948624999	0.584850025
128.0	-8.920932427624999	0.6171651375
130.0	-8.920936099625	0.650556025
132.0	-8.92093997175	0.6850238375
134.0	-8.9209440515	0.7205688125
136.0	-8.920948346374999	0.757190275
138.0	-8.920952863875	0.79488675
140.0	-8.920957611875	0.8336559125
142.0	-8.920962598	0.873494725
144.0	-8.92096783025	0.9143993875
146.0	-8.9209733165	0.956365425
148.0	-8.92097906475	0.9993877
150.0	-8.920985083125	1.0434604625
152.0	-8.92099137975	1.0885773375
154.0	-8.920997962875	1.134731375
156.0	-8.921004840624999	1.1819151125
158.0	-8.9210120215	1.230120525
160.0	-8.921019513874999	1.2793391
162.0	-8.921027325999999	1.329561825
164.0	-8.9210354665	1.380779225
166.0	-8.921043943625	1.4329814125
168.0	-8.92105276625	1.4861580125
170.0	-8.921061942625	1.5402982875
172.0	-8.921071481375	1.595391075
174.0	-8.921081391249999	1.651424825
176.0	-8.921091680624999	1.7083876375
178.0	-8.921102358375	1.7662672375
180.0	-8.921113432999999	1.825051025
182.0	-8.921124913249999	1.8847260625
184.0	-8.921136807624999	1.9452791125
186.0	-8.921149125	2.0066966125
188.0	-8.921161873874999	2.0689647375
190.0	-8.921175063	2.1320693875
192.0	-8.921188700875	2.195996175
194.0	-8.92120279625	2.2607305
196.0	-8.921217357875	2.3262575
198.0	-8.921232394125	2.3925621
200.0	-8.921247913875	2.459629025
202.0	-8.921263925375	2.5274428
204.0	-8.9212804375	2.5959877625
206.0	-8.9212974585	2.6652481125
208.0	-8.921314997125	2.73520785
210.0	-8.92133306175	2.8058508625
212.0	-8.92135166075	2.877160925
214.0	-8.921370802624999	2.94912165
216.0	-8.92139049575	3.0217166125
218.0	-8.9214107485	3.09492925
220.0	-8.921431569	3.1687429375
222.0	-8.92145296575	3.2431410125
224.0	-8.92147494675	3.31810675
226.0	-8.921497520374999	3.3936233875
228.0	-8.9215206945	3.469674125
230.0	-8.9215444775	3.5462421875
232.0	-8.921568877124999	3.623310775
234.0	-8.9215939015	3.700863125
236.0	-8.9216195585	3.778882475
238.0	-8.921645855875	3.8573521125
240.0	-8.921672801625	3.9362553625
242.0	-8.9217004035	4.01557565
244.0	-8.921728669	4.0952964125
246.0	-8.921757605875	4.1754012
248.0	-8.921787221625	4.2558736625
250.0	-8.921817523875	4.3366975125
252.0	-8.921848519874999	4.4178566
254.0	-8.92188021725	4.4993348875
256.0	-8.921912623125	4.58111645
258.0	-8.92194574475	4.663185525
260.0	-8.921979589374999	4.7455264625
262.0	-8.922014164124999	4.8281237625
264.0	-8.922049475875	4.9109621
266.0	-8.922085531875	4.9940263125
268.0	-8.922122338749999	5.0773013875
270.0	-8.922159903374999	5.1607725
272.0	-8.922198232625	5.244425
274.0	-8.922237333124999	5.328244425
276.0	-8.922277211374999	5.4122165125
278.0	-8.922317874125	5.496327175
280.0	-8.922359327625	5.5805625375
282.0	-8.92240157825	5.6649089375
284.0	-8.9224446325	5.7493529
286.0	-8.922488496625	5.8338811625
288.0	-8.9225331765	5.9184807
290.0	-8.922578678499999	6.00313865
292.0	-8.922625008375	6.0878424375
294.0	-8.92267217225	6.1725796375
296.0	-8.922720175999999	6.2573381
298.0	-8.92276902525	6.3421058625
300.0	-8.922818725874999	6.426871225
302.0	-8.92286928325	6.5116226625
304.0	-8.92292070325	6.5963489
306.0	-8.922972991124999	6.6810389125
308.0	-8.92302615225	6.765681875
310.0	-8.923080192125	6.850267175
312.0	-8.923135115874999	6.93478445
314.0	-8.92319092875	7.019223575
316.0	-8.92324763575	7.1035746
318.0	-8.923305241875	7.187827875
320.0	-8.923363752124999	7.2719739
322.0	-8.923423171375	7.3560034375
324.0	-8.9234835045	7.4399074625
326.0	-8.923544756	7.523677175
328.0	-8.92360693075	7.6073039875
330.0	-8.923670033125	7.690779525
332.0	-8.923734067749999	7.77409565
334.0	-8.923799038999999	7.8572444125
336.0	-8.92386495125	7.9402180875
338.0	-8.92393180875	8.0230091625
340.0	-8.923999615749999	8.1056103125
342.0	-8.92406837625	8.1880144375
344.0	-8.9241380945	8.2702146375
346.0	-8.924208774375	8.3522042125
348.0	-8.92428041975	8.4339766375
350.0	-8.924353034625	8.5155256375
352.0	-8.924426622624999	8.5968450625
354.0	-8.924501187625	8.677929
356.0	-8.924576733124999	8.7587717125
358.0	-8.924653262749999	8.83936765
360.0	-8.924730779999999	8.919711425
362.0	-8.924809288375	8.9997978625
364.0	-8.924888791125	9.079621925
366.0	-8.924969291624999	9.1591787875
368.0	-8.92505079325	9.2384637625
370.0	-8.925133298875	9.3174723625
372.0	-8.925216811875	9.3962002375
374.0	-8.92530133525	9.4746432
376.0	-8.925386871875	9.55279725
378.0	-8.925473424875	9.630658525
380.0	-8.925560996875	9.7082233
382.0	-8.92564959075	9.785488025
384.0	-8.925739209375	9.8624492875
386.0	-8.925829855249999	9.9391038375
388.0	-8.925921531124999	10.015448525
390.0	-8.926014239625	10.091480375
392.0	-8.926107983	10.16719655
394.0	-8.926202763874999	10.2425943125
396.0	-8.926298584625	10.3176711
398.0	-8.9263954475	10.3924244375
400.0	-8.926493354875	10.4668520125
402.0	-8.926592308875	10.5409515875
404.0	-8.926692311875	10.6147210875
406.0	-8.92679336575	10.6881585375
408.0	-8.926895472624999	10.7612620875
410.0	-8.926998634499999	10.8340299625
412.0	-8.927102853374999	10.90646055
414.0	-8.927208131125	10.9785523
416.0	-8.927314469499999	11.0503038
418.0	-8.9274218705	11.1217137125
420.0	-8.927530335875	11.1927808
422.0	-8.927639867124999	11.26350395
424.0	-8.927750465999999	11.3338821125
426.0	-8.927862134	11.4039143375
428.0	-8.927974873	11.473599775
430.0	-8.928088684125	11.5429376625
432.0	-8.928203569125	11.6119273
434.0	-8.928319529249999	11.6805680875
436.0	-8.928436565875	11.7488595125
438.0	-8.928554680374999	11.816801125
440.0	-8.928673874125	11.8843925625
442.0	-8.928794148125	11.9516335125
444.0	-8.928915503874999	12.0185237875
446.0	-8.92903794225	12.0850632
448.0	-8.929161464624999	12.1512516875
450.0	-8.929286071749999	12.2170892375
452.0	-8.929411765	12.282575875
454.0	-8.929538545125	12.347711725
456.0	-8.929666413125	12.4124969625
458.0	-8.929795369999999	12.4769318
460.0	-8.9299254165	12.541016525
462.0	-8.9300565535	12.6047514875
464.0	-8.930188781875	12.6681370875
466.0	-8.930322102375	12.73117375
468.0	-8.930456515625	12.793861975
470.0	-8.93059202225	12.856202325
472.0	-8.930728623124999	12.918195375
474.0	-8.930866318749999	12.979841775
476.0	-8.93100510975	13.0411422
478.0	-8.931144996625	13.1020973875
480.0	-8.931285979875	13.162708075
482.0	-8.931428060124999	13.2229750875
484.0	-8.931571237624999	13.282899275
486.0	-8.931715512875	13.3424815125
488.0	-8.93186088625	13.4017227125
490.0	-8.932007358124999	13.460623825
492.0	-8.932154928874999	13.51918585
494.0	-8.93230359875	13.5774097875
496.0	-8.932453368	13.6352967
498.0	-8.932604236875	13.69284765
500.0	-8.932756205499999	13.7500637625
502.0	-8.932909274124999	13.8069461625
504.0	-8.933063443	13.8634960125
506.0	-8.933218712124999	13.9197144875
508.0	-8.933375081625	13.975602825
510.0	-8.933532551499999	14.0311622375
512.0	-8.933691121874999	14.0863939875
514.0	-8.933850792749999	14.14129935
516.0	-8.934011564124999	14.195879625
518.0	-8.934173436	14.2501361375
520.0	-8.93433640825	14.304070225
522.0	-8.93450048075	14.357683225
524.0	-8.9346656535	14.410976525
526.0	-8.93483192625	14.463951525
528.0	-8.934999299	14.5166096
530.0	-8.9351677715	14.5689521875
532.0	-8.935337343499999	14.620980725
534.0	-8.935508014875	14.6726966375
536.0	-8.935679785249999	14.7241014125
538.0	-8.9358526545	14.7751964875
540.0	-8.936026622249999	14.825983375
542.0	-8.93620168825	14.8764635375
544.0	-8.936377852125	14.9266385
546.0	-8.936555113499999	14.9765097625
548.0	-8.936733472124999	15.0260788625
550.0	-8.9369129275	15.0753473
552.0	-8.937093479249999	15.124316625
554.0	-8.937275127	15.172988375
556.0	-8.93745787025	15.2213641125
558.0	-8.9376417085	15.269445375
560.0	-8.937826641374999	15.317233725
562.0	-8.938012668374999	15.3647307375
564.0	-8.938199788999999	15.411937975
566.0	-8.9383880025	15.458857025
568.0	-8.938577308625	15.5054894375
570.0	-8.938767706624999	15.5518368125
572.0	-8.938959195999999	15.597900725
574.0	-8.93915177625	15.64368275
576.0	-8.939345446499999	15.6891845
578.0	-8.939540206375	15.7344075375
580.0	-8.939736055	15.779353475
582.0	-8.939932992	15.8240238875
584.0	-8.940131016499999	15.8684203625
586.0	-8.940330127874999	15.9125444875
588.0	-8.940530325374999	15.956397875
590.0	-8.940731608375	15.9999820875
592.0	-8.94093397625	16.0432987375
594.0	-8.941137428	16.0863494
596.0	-8.941341963	16.12913565
598.0	-8.9415475805	16.1716590875
600.0	-8.941754279749999	16.2139213
602.0	-8.941962059875	16.25592385
604.0	-8.94217092025	16.2976683125
606.0	-8.94238085975	16.3391562875
608.0	-8.942591877875	16.3803893125
610.0	-8.942803973624999	16.4213689875
612.0	-8.94301714625	16.46209685
614.0	-8.943231394749999	16.5025744875
616.0	-8.94344671825	16.542803425
618.0	-8.943663116125	16.58278525
620.0	-8.94388058725	16.6225214875
622.0	-8.944099130749999	16.6620136875
624.0	-8.944318745875	16.7012633875
626.0	-8.944539431499999	16.740272125
628.0	-8.94476118675	16.7790414375
630.0	-8.944984010874999	16.8175728375
632.0	-8.945207902624999	16.85586785
634.0	-8.94543286125	16.893928
636.0	-8.945658885875	16.931754775
638.0	-8.945885975249999	16.9693496875
640.0	-8.9461141285	17.0067142375
642.0	-8.94634334475	17.0438499125
644.0	-8.946573622874999	17.0807582
646.0	-8.946804962	17.1174405875
648.0	-8.947037361	17.1538985375
650.0	-8.947270818749999	17.1901335125
652.0	-8.947505334499999	17.2261469875
654.0	-8.947740907	17.2619404
656.0	-8.947977535375	17.2975152125
658.0	-8.948215218375	17.3328728625
660.0	-8.948453955	17.368014775
662.0	-8.948693744375	17.4029423875
664.0	-8.948934585124999	17.4376571125
666.0	-8.9491764765	17.4721603625
668.0	-8.949419417125	17.50645355
670.0	-8.949663406125	17.540538075
672.0	-8.949908442249999	17.574415325
674.0	-8.9501545245	17.6080866875
676.0	-8.95040165175	17.6415535375
678.0	-8.950649822874999	17.6748172375
680.0	-8.95089903675	17.707879175
682.0	-8.951149292375	17.7407406875
684.0	-8.951400588375	17.773403125
686.0	-8.95165292375	17.805867825
688.0	-8.951906297499999	17.8381361375
690.0	-8.95216070825	17.870209375
692.0	-8.952416155	17.9020888625
694.0	-8.9526726365	17.9337759
696.0	-8.952930151624999	17.9652718
698.0	-8.95318869925	17.9965778625
700.0	-8.953448278249999	18.0276953625
702.0	-8.953708887374999	18.0586256
704.0	-8.953970525499999	18.089369825
706.0	-8.954233191375	18.119929325
708.0	-8.954496884	18.15030535
710.0	-8.954761601875	18.1804991375
712.0	-8.955027344125	18.21051195
714.0	-8.955294109499999	18.240345025
716.0	-8.955561896625	18.2699995625
718.0	-8.955830704499999	18.2994768125
720.0	-8.95610053175	18.3287779625
722.0	-8.956371377375	18.3579042375
724.0	-8.95664324	18.386856825
726.0	-8.956916118375	18.415636925
728.0	-8.9571900115	18.4442457
730.0	-8.957464918	18.4726843375
732.0	-8.95774083675	18.500954
734.0	-8.9580177665	18.52905585
736.0	-8.958295706	18.5569910375
738.0	-8.958574654	18.5847607125
740.0	-8.958854609249999	18.612366
742.0	-8.959135570625	18.6398080375
744.0	-8.959417536875	18.66708795
746.0	-8.95970050675	18.6942068375
748.0	-8.959984478874999	18.721165825
750.0	-8.96026945225	18.747966
752.0	-8.960555425499999	18.7746084625
754.0	-8.96084239725	18.8010942875
756.0	-8.961130366625	18.8274245625
758.0	-8.961419332	18.8536003375
760.0	-8.961709292375	18.8796227125
762.0	-8.962000246375	18.9054927
764.0	-8.962292192749999	18.9312113875
766.0	-8.962585130374999	18.9567797875
768.0	-8.962879057875	18.98219895
770.0	-8.963173974	19.0074698875
772.0	-8.963469877625	19.0325936375
774.0	-8.96376676725	19.0575712
776.0	-8.964064641875	19.0824035875
778.0	-8.964363500125	19.1070917875
780.0	-8.964663340625	19.1316368125
782.0	-8.964964162374999	19.156039625
784.0	-8.965265963875	19.1803012125
786.0	-8.965568743999999	19.20442255
788.0	-8.9658725015	19.2284045875
790.0	-8.966177235	19.2522483
792.0	-8.966482943374999	19.275954625
794.0	-8.96678962525	19.2995245125
796.0	-8.96709727925	19.3229588875
798.0	-8.967405904375	19.3462587
800.0	-8.96771549925	19.3694248625
802.0	-8.968026062624999	19.3924582875
804.0	-8.968337593125	19.4153599
806.0	-8.968650089625	19.4381305875
808.0	-8.968963550749999	19.46077125
810.0	-8.96927797525	19.4832827875
812.0	-8.969593362	19.505666075
814.0	-8.9699097095	19.527922
816.0	-8.970227016625	19.550051425
818.0	-8.970545282125	19.572055225
820.0	-8.970864504749999	19.59393425
822.0	-8.971184683125	19.61568935
824.0	-8.971505815999999	19.6373213875
826.0	-8.971827902125	19.6588311875
828.0	-8.972150940375	19.6802195875
830.0	-8.97247492925	19.701487425
832.0	-8.972799867625	19.7226355125
834.0	-8.973125754125	19.7436646625
836.0	-8.973452587625	19.7645757
838.0	-8.973780366875	19.785369425
840.0	-8.974109090499999	19.806046625
842.0	-8.974438757249999	19.8266080875
844.0	-8.974769365875	19.847054625
846.0	-8.975100915125	19.867387
848.0	-8.975433403624999	19.887606
850.0	-8.975766830375	19.907712375
852.0	-8.976101193875	19.9277069
854.0	-8.976436493	19.9475903375
856.0	-8.976772726375	19.967363425
858.0	-8.977109892875	19.9870269375
860.0	-8.977447991124999	20.0065815875
862.0	-8.977787019874999	20.0260281125
864.0	-8.978126977999999	20.0453672625
866.0	-8.978467864125	20.06459975
868.0	-8.978809677	20.0837263
870.0	-8.979152415375	20.102747625
872.0	-8.979496078124999	20.121664425
874.0	-8.97984066375	20.1404774125
876.0	-8.980186171125	20.1591872875
878.0	-8.980532599124999	20.1777947375
880.0	-8.980879946375	20.19630045
882.0	-8.981228211625	20.214705125
884.0	-8.981577393499999	20.2330094125
886.0	-8.981927491124999	20.2512140125
888.0	-8.982278502875	20.2693195625
890.0	-8.982630427624999	20.2873267625
892.0	-8.982983264249999	20.3052362375
894.0	-8.9833370115	20.3230486625
896.0	-8.983691667875	20.340764675
898.0	-8.9840472325	20.3583849125
900.0	-8.984403703875	20.3759100375
902.0	-8.98476108075	20.39334065
904.0	-8.985119362125	20.4106774125
906.0	-8.9854785465	20.427920925
908.0	-8.985838632875	20.445071825
910.0	-8.986199619874998	20.4621307125
912.0	-8.986561506374999	20.4790982
914.0	-8.986924291	20.4959749
916.0	-8.987287972625	20.512761425
918.0	-8.98765255	20.5294583375
920.0	-8.988018021999999	20.5460662625
922.0	-8.988384387124999	20.5625857875
924.0	-8.988751644499999	20.579017475
926.0	-8.989119792624999	20.5953619125
928.0	-8.9894888305	20.611619675
930.0	-8.98985875675	20.62779135
932.0	-8.99022957025	20.643877475
934.0	-8.99060126975	20.6598786375
936.0	-8.990973854	20.675795375
938.0	-8.991347321874999	20.6916282625
940.0	-8.991721671999999	20.7073778375
942.0	-8.9920969035	20.7230446375
944.0	-8.992473014749999	20.738629225
946.0	-8.992850004874999	20.754132125
948.0	-8.993227872499999	20.7695538625
950.0	-8.993606616625	20.7848949875
952.0	-8.993986235749999	20.8001560125
954.0	-8.994366728874999	20.81533745
956.0	-8.99474809475	20.83043985
958.0	-8.995130332125	20.8454636875
960.0	-8.99551344	20.8604095
962.0	-8.995897417	20.8752777875
964.0	-8.996282262	20.89006905
966.0	-8.99666797375	20.9047837875
968.0	-8.997054551249999	20.9194225
970.0	-8.997441993125	20.9339856625
972.0	-8.99783029825	20.948473775
974.0	-8.9982194655	20.962887325
976.0	-8.9986094935	20.9772267875
978.0	-8.999000381375	20.99149265
980.0	-8.99939212775	21.005685375
982.0	-8.9997847315	21.019805425
984.0	-9.0001781915	21.0338532875
986.0	-9.000572506374999	21.0478294
988.0	-9.00096767525	21.06173425
990.0	-9.001363696875	21.075568275
992.0	-9.00176057	21.0893319375
994.0	-9.002158293374999	21.1030256875
996.0	-9.002556866125	21.1166499625
998.0	-9.002956286875	21.1302052125
1000.0	-9.0033565545	21.1436918625
