temperature	helm_energy	Cv
0.0	-8.904523254375	0.0
2.0	-8.904523254375	0.0
4.0	-8.904523254375	7.9875e-06
6.0	-8.904523254375	4.34375e-05
8.0	-8.90452325475	0.00011125
10.0	-8.90452325575	0.0002203375
12.0	-8.904523257625	0.0003819875
14.0	-8.90452326075	0.000607525
16.0	-8.904523265625	0.0009080875
18.0	-8.90452327275	0.0012948875
20.0	-8.90452328275	0.0017791875
22.0	-8.904523296375	0.0023724625
24.0	-8.90452331425	0.003086375
26.0	-8.90452333725	0.0039328375
28.0	-8.904523366375	0.004924025
30.0	-8.9045234025	0.0060724625
32.0	-8.90452344675	0.0073909875
34.0	-8.90452350025	0.0088928875
36.0	-8.90452356425	0.010591925
38.0	-8.90452364	0.0125024
40.0	-8.904523729	0.01463925
42.0	-8.9045238325	0.0170181625
44.0	-8.90452395225	0.019655675
46.0	-8.904524089875	0.022569275
48.0	-8.90452424725	0.0257775625
50.0	-8.904524426	0.029300325
52.0	-8.90452462825	0.0331586
54.0	-8.904524856	0.03737485
56.0	-8.904525111375	0.0419729
58.0	-8.904525396875	0.0469780625
60.0	-8.904525714625	0.052417025
62.0	-8.904526067499999	0.058317825
64.0	-8.904526457875	0.064709825
66.0	-8.90452688875	0.0716234875
68.0	-8.904527363125	0.0790903375
70.0	-8.904527883875	0.0871427125
72.0	-8.904528454625	0.095813625
74.0	-8.9045290785	0.1051365375
76.0	-8.90452975925	0.1151451625
78.0	-8.904530500625	0.125873275
80.0	-8.9045313065	0.1373545
82.0	-8.904532181125	0.1496221125
84.0	-8.90453312875	0.1627088375
86.0	-8.904534153875	0.176646725
88.0	-8.904535261125	0.1914669375
90.0	-8.9045364555	0.207199675
92.0	-8.904537741875	0.2238739875
94.0	-8.90453912575	0.2415177125
96.0	-8.904540612249999	0.2601573625
98.0	-8.90454220725	0.2798181
100.0	-8.9045439165	0.3005236375
102.0	-8.904545746	0.3222961875
104.0	-8.90454770175	0.3451564875
106.0	-8.904549790375	0.3691237625
108.0	-8.904552018375	0.3942157125
110.0	-8.90455439225	0.4204485125
112.0	-8.904556919125	0.4478368375
114.0	-8.904559606	0.476393875
116.0	-8.90456246	0.5061313875
118.0	-8.9045654885	0.537059675
120.0	-8.904568699	0.56918765
122.0	-8.904572099375	0.602522875
124.0	-8.90457569725	0.637071575
126.0	-8.904579500625	0.6728387
128.0	-8.904583517625	0.709827925
130.0	-8.9045877565	0.7480417375
132.0	-8.9045922255	0.787481475
134.0	-8.90459693325	0.828147275
136.0	-8.904601888125	0.8700382375
138.0	-8.904607098875	0.91315235
140.0	-8.904612574375	0.957486625
142.0	-8.904618323375	1.0030370375
144.0	-8.904624355	1.0497986125
146.0	-8.90463067825	1.0977654625
148.0	-8.904637302125	1.1469307625
150.0	-8.904644236125	1.1972868625
152.0	-8.904651489375	1.2488252625
154.0	-8.90465907125	1.3015366375
156.0	-8.90466699125	1.3554109
158.0	-8.90467525875	1.4104372
160.0	-8.904683883375	1.46660395
162.0	-8.904692874625	1.5238989125
164.0	-8.904702242125	1.5823091125
166.0	-8.9047119955	1.641821
168.0	-8.904722144625	1.7024203375
170.0	-8.904732699	1.76409235
172.0	-8.9047436685	1.8268216875
174.0	-8.904755062875	1.890592425
176.0	-8.90476689175	1.955388175
178.0	-8.904779165125	2.0211920375
180.0	-8.90479189275	2.08798665
182.0	-8.90480508425	2.1557542125
184.0	-8.904818749624999	2.22447655
186.0	-8.9048328985	2.29413505
188.0	-8.90484754075	2.3647107875
190.0	-8.90486268625	2.436184475
192.0	-8.9048783445	2.50853655
194.0	-8.904894525375	2.58174715
196.0	-8.904911238625	2.6557961375
198.0	-8.904928493875	2.7306631875
200.0	-8.90494630075	2.8063277125
202.0	-8.904964668875	2.882769
204.0	-8.904983607875	2.9599661375
206.0	-8.90500312725	3.037898075
208.0	-8.905023236375	3.116543675
210.0	-8.905043945	3.1958816875
212.0	-8.90506526225	3.2758908
214.0	-8.905087197625	3.35654965
216.0	-8.9051097605	3.4378368375
218.0	-8.905132959874999	3.5197309625
220.0	-8.905156805125	3.60221065
222.0	-8.90518130525	3.6852545375
224.0	-8.905206469374999	3.7688413125
226.0	-8.905232306625	3.85294975
228.0	-8.90525882575	3.937558675
230.0	-8.905286035625	4.02264705
232.0	-8.905313945125	4.108193925
234.0	-8.905342562875	4.1941784875
236.0	-8.905371897625	4.2805800875
238.0	-8.905401957875	4.367378225
240.0	-8.905432752125	4.45455255
242.0	-8.90546428875	4.54208295
244.0	-8.90549657625	4.62994945
246.0	-8.905529622625	4.7181323375
248.0	-8.90556343625	4.806612075
250.0	-8.905598025125	4.895369375
252.0	-8.905633397125	4.9843851875
254.0	-8.905669560375	5.0736407
256.0	-8.90570652275	5.1631173625
258.0	-8.905744291625	5.2527969
260.0	-8.905782875	5.342661275
262.0	-8.905822280375	5.4326927375
264.0	-8.905862515125	5.5228738125
266.0	-8.905903586625	5.61318735
268.0	-8.905945502125	5.703616425
270.0	-8.905988269	5.7941444625
272.0	-8.90603189425	5.88475515
274.0	-8.906076384875	5.9754324875
276.0	-8.906121747875	6.0661607875
278.0	-8.90616799	6.15692465
280.0	-8.906215118	6.247709
282.0	-8.9062631385	6.338499075
284.0	-8.906312058125	6.4292803875
286.0	-8.90636188325	6.5200388
288.0	-8.90641262025	6.6107604625
290.0	-8.906464275375	6.7014318375
292.0	-8.906516854874999	6.792039725
294.0	-8.90657036475	6.8825712
296.0	-8.906624811	6.9730136625
298.0	-8.906680199625	7.0633548125
300.0	-8.90673653625	7.1535826625
302.0	-8.90679382675	7.243685525
304.0	-8.906852076625	7.333652025
306.0	-8.9069112915	7.4234710625
308.0	-8.906971476625	7.5131318625
310.0	-8.907032637624999	7.6026239375
312.0	-8.9070947795	7.691937075
314.0	-8.907157907625	7.781061375
316.0	-8.907222026874999	7.8699872125
318.0	-8.907287142374999	7.95870525
320.0	-8.907353258875	8.0472064
322.0	-8.907420381375	8.1354819125
324.0	-8.907488514375	8.2235232375
326.0	-8.907557662625	8.3113221625
328.0	-8.90762783075	8.398870675
330.0	-8.907699023125	8.4861610875
332.0	-8.907771244	8.5731859
334.0	-8.907844497875	8.6599379375
336.0	-8.907918788875	8.7464102125
338.0	-8.907994121	8.8325960125
340.0	-8.9080704985	8.918488875
342.0	-8.90814792525	9.00408255
344.0	-8.908226405	9.089371025
346.0	-8.90830594175	9.174348525
348.0	-8.908386539	9.2590095
350.0	-8.908468200625	9.3433486125
352.0	-8.90855093	9.427360725
354.0	-8.908634730625	9.5110409375
356.0	-8.908719605875	9.59438455
358.0	-8.90880555925	9.67738705
360.0	-8.908892593875	9.76004415
362.0	-8.908980712875	9.842351725
364.0	-8.9090699195	9.9243058625
366.0	-8.90916021675	10.005902825
368.0	-8.909251607375	10.0871390625
370.0	-8.909344094625	10.1680112125
372.0	-8.909437681	10.2485160375
374.0	-8.90953236925	10.32865055
376.0	-8.909628162375	10.40841185
378.0	-8.909725062625	10.4877972375
380.0	-8.90982307275	10.5668041875
382.0	-8.909922195125	10.645430275
384.0	-8.91002243225	10.723673275
386.0	-8.910123786375	10.801531075
388.0	-8.910226259875	10.8790017375
390.0	-8.910329854875	10.9560834375
392.0	-8.9104345735	11.0327744875
394.0	-8.910540418	11.1090733375
396.0	-8.910647390375	11.1849785625
398.0	-8.9107554925	11.260488875
400.0	-8.91086472625	11.3356031
402.0	-8.910975093625	11.410320175
404.0	-8.911086596375	11.48463915
406.0	-8.911199236125	11.5585592125
408.0	-8.91131301475	11.6320796125
410.0	-8.91142793375	11.7051997375
412.0	-8.911543994625	11.7779190875
414.0	-8.911661199	11.8502372375
416.0	-8.911779548375	11.9221538625
418.0	-8.911899044125	11.993668725
420.0	-8.912019687499999	12.0647817125
422.0	-8.91214148	12.1354927625
424.0	-8.91226442275	12.2058019125
426.0	-8.912388517	12.275709275
428.0	-8.912513763875	12.34521505
430.0	-8.912640164499999	12.414319525
432.0	-8.912767719875	12.4830230375
434.0	-8.912896431125	12.5513260125
436.0	-8.91302629925	12.61922895
438.0	-8.913157325	12.6867324
440.0	-8.913289509375	12.753837
442.0	-8.91342285325	12.820543425
444.0	-8.91355735725	12.8868524375
446.0	-8.913693022375	12.9527648375
448.0	-8.913829849	13.0182814875
450.0	-8.913967838125	13.083403325
452.0	-8.914106990125	13.1481313125
454.0	-8.914247305625	13.212466475
456.0	-8.914388785375	13.276409875
458.0	-8.914531429625	13.33996265
460.0	-8.914675238875	13.4031259625
462.0	-8.91482021375	13.4659010125
464.0	-8.914966354375	13.5282890625
466.0	-8.91511366125	13.5902913875
468.0	-8.91526213475	13.6519093375
470.0	-8.915411775	13.713144275
472.0	-8.915562582375	13.7739975875
474.0	-8.915714557	13.834470725
476.0	-8.915867699125	13.8945651625
478.0	-8.91602200875	13.9542823875
480.0	-8.91617748625	14.0136239375
482.0	-8.916334131375	14.0725913625
484.0	-8.9164919445	14.1311862625
486.0	-8.9166509255	14.1894102375
488.0	-8.916811074249999	14.247264925
490.0	-8.916972390875	14.3047519875
492.0	-8.917134875125	14.3618731125
494.0	-8.917298527125	14.41863
496.0	-8.9174633465	14.475024375
498.0	-8.917629333375	14.5310579625
500.0	-8.91779648725	14.58673255
502.0	-8.917964808125	14.6420499
504.0	-8.91813429575	14.6970118
506.0	-8.91830494975	14.7516200625
508.0	-8.918476769875	14.8058765125
510.0	-8.91864975575	14.8597829875
512.0	-8.91882390725	14.913341325
514.0	-8.91899922375	14.9665533875
516.0	-8.919175705	15.0194210625
518.0	-8.9193533505	15.0719462
520.0	-8.919532159875	15.1241307
522.0	-8.919712132625	15.1759764625
524.0	-8.919893268375	15.227485375
526.0	-8.920075566374999	15.278659375
528.0	-8.920259026375	15.3295003625
530.0	-8.920443647625	15.380010275
532.0	-8.92062942975	15.4301910125
534.0	-8.920816371875	15.480044525
536.0	-8.921004473625	15.52957275
538.0	-8.921193734375	15.5787776125
540.0	-8.92138415325	15.627661075
542.0	-8.921575729875	15.67622505
544.0	-8.92176846325	15.7244715125
546.0	-8.921962353	15.7724023875
548.0	-8.922157398125	15.820019625
550.0	-8.922353598	15.867325175
552.0	-8.922550951875	15.914320975
554.0	-8.922749459	15.961008975
556.0	-8.9229491185	16.0073911125
558.0	-8.923149929625	16.0534693375
560.0	-8.923351891625	16.0992455875
562.0	-8.923555003375	16.1447217875
564.0	-8.923759264375	16.1898998875
566.0	-8.9239646735	16.2347818125
568.0	-8.92417123	16.279369475
570.0	-8.924378933	16.3236648125
572.0	-8.924587781375	16.36766975
574.0	-8.9247977745	16.411386175
576.0	-8.925008911125	16.454816025
578.0	-8.9252211905	16.4979612
580.0	-8.925434611625	16.540823575
582.0	-8.9256491735	16.583405075
584.0	-8.925864875125	16.6257075625
586.0	-8.9260817155	16.6677329375
588.0	-8.9262996935	16.7094830625
590.0	-8.926518808375	16.7509598
592.0	-8.92673905875	16.7921650375
594.0	-8.92696044375	16.8331006
596.0	-8.927182962375	16.8737683625
598.0	-8.9274066135	16.9141701375
600.0	-8.927631395875	16.9543077875
602.0	-8.927857308625	16.9941831
604.0	-8.9280843505	17.033797925
606.0	-8.9283125205	17.0731540625
608.0	-8.928541817375	17.1122533125
610.0	-8.928772240125	17.1510974625
612.0	-8.9290037875	17.1896883
614.0	-8.929236458375	17.2280276
616.0	-8.929470251625	17.2661171375
618.0	-8.929705166	17.30395865
620.0	-8.929941200375	17.3415539125
622.0	-8.930178353625	17.37890465
624.0	-8.930416624375	17.4160126125
626.0	-8.930656011625	17.4528794875
628.0	-8.930896514125	17.489507025
630.0	-8.9311381305	17.5258969125
632.0	-8.931380859625	17.5620508375
634.0	-8.931624700375	17.5979705
636.0	-8.931869651374999	17.6336575625
638.0	-8.932115711375	17.6691137
640.0	-8.932362879125	17.7043405625
642.0	-8.932611153375	17.7393398
644.0	-8.932860533	17.7741130625
646.0	-8.9331110165	17.80866195
648.0	-8.93336260275	17.8429881
650.0	-8.933615290375	17.877093125
652.0	-8.93386907825	17.9109786
654.0	-8.934123964875	17.9446461375
656.0	-8.934379949	17.9780972875
658.0	-8.934637029375	18.01133365
660.0	-8.93489520475	18.0443567625
662.0	-8.935154473625	18.0771681875
664.0	-8.93541483475	18.10976945
666.0	-8.935676286875	18.1421620875
668.0	-8.935938828625	18.1743476125
670.0	-8.936202458625	18.2063275375
672.0	-8.936467175625	18.2381033625
674.0	-8.936732978125	18.269676575
676.0	-8.936999865	18.30104865
678.0	-8.93726783475	18.3322210625
680.0	-8.937536886	18.363195275
682.0	-8.937807017375	18.3939727125
684.0	-8.93807822775	18.42455485
686.0	-8.9383505155	18.4549430875
688.0	-8.93862387925	18.48513885
690.0	-8.938898317875	18.5151435625
692.0	-8.93917382975	18.5449586125
694.0	-8.939450413625	18.5745854
696.0	-8.939728067999999	18.6040252875
698.0	-8.940006791625	18.63327965
700.0	-8.940286583125	18.6623498625
702.0	-8.940567440875	18.6912372625
704.0	-8.940849363875	18.7199432
706.0	-8.941132350375	18.7484689875
708.0	-8.941416399125	18.776815975
710.0	-8.94170150875	18.8049854625
712.0	-8.94198767775	18.83297875
714.0	-8.94227490475	18.8607971375
716.0	-8.9425631885	18.8884419
718.0	-8.942852527375	18.9159143125
720.0	-8.943142920125	18.94321565
722.0	-8.94343436525	18.9703471625
724.0	-8.943726861375	18.9973101
726.0	-8.944020407	19.0241056875
728.0	-8.944315000875	19.050735175
730.0	-8.944610641375	19.0771997625
732.0	-8.944907327375	19.103500675
734.0	-8.945205057125	19.1296391
736.0	-8.9455038295	19.1556162375
738.0	-8.945803642875	19.1814332625
740.0	-8.946104495875	19.2070913625
742.0	-8.946406387125	19.2325916875
744.0	-8.946709315125	19.2579354
746.0	-8.9470132785	19.28312365
748.0	-8.947318275875	19.308157575
750.0	-8.94762430575	19.3330383
752.0	-8.94793136675	19.3577669625
754.0	-8.948239457375	19.38234465
756.0	-8.94854857625	19.4067724875
758.0	-8.948858722	19.4310515625
760.0	-8.949169893	19.4551829625
762.0	-8.949482088125	19.479167775
764.0	-8.949795305625	19.50300705
766.0	-8.95010954425	19.5267018625
768.0	-8.950424802625	19.550253275
770.0	-8.95074107925	19.573662325
772.0	-8.951058372625	19.59693005
774.0	-8.951376681375	19.6200574875
776.0	-8.951696004124999	19.6430456375
778.0	-8.952016339375	19.6658955375
780.0	-8.95233768575	19.6886081875
782.0	-8.95266004175	19.711184575
784.0	-8.952983406125	19.7336257
786.0	-8.953307777125	19.75593255
788.0	-8.953633153625	19.7781060875
790.0	-8.953959534125	19.8001472875
792.0	-8.954286917125	19.8220571
794.0	-8.95461530125	19.8438364875
796.0	-8.954944685	19.8654864
798.0	-8.955275067125	19.88700775
800.0	-8.955606445999999	19.9084014875
802.0	-8.95593882025	19.9296685375
804.0	-8.956272188625	19.9508098
806.0	-8.9566065495	19.9718261875
808.0	-8.956941901625	19.9927186125
810.0	-8.957278243375	20.0134879625
812.0	-8.9576155735	20.0341351125
814.0	-8.9579538905	20.05466095
816.0	-8.958293193	20.07506635
818.0	-8.958633479625	20.0953521875
820.0	-8.958974748875	20.1155193
822.0	-8.959316999375	20.13556855
824.0	-8.959660229625	20.155500775
826.0	-8.960004438375	20.1753168375
828.0	-8.960349624125	20.1950175375
830.0	-8.9606957855	20.214603725
832.0	-8.961042921	20.2340762
834.0	-8.961391029375	20.2534357875
836.0	-8.961740109125	20.2726833
838.0	-8.962090158875	20.2918195125
840.0	-8.962441177125	20.3108452375
842.0	-8.962793162625	20.32976125
844.0	-8.963146113875	20.34856835
846.0	-8.9635000295	20.3672672875
848.0	-8.96385490825	20.3858588375
850.0	-8.9642107485	20.404343775
852.0	-8.964567548875	20.4227228375
854.0	-8.964925308125	20.4409967875
856.0	-8.965284024875	20.4591663625
858.0	-8.965643697625	20.4772323125
860.0	-8.966004325	20.49519535
862.0	-8.966365905625	20.5130562125
864.0	-8.966728438125	20.5308156125
866.0	-8.967091921125	20.548474275
868.0	-8.96745635325	20.5660329125
870.0	-8.967821733125	20.5834922125
872.0	-8.968188059375	20.6008528875
874.0	-8.968555330625	20.618115625
876.0	-8.9689235455	20.6352811125
878.0	-8.969292702625	20.652350025
880.0	-8.969662800625	20.6693230375
882.0	-8.970033838125	20.686200825
884.0	-8.970405813875	20.7029840625
886.0	-8.97077872625	20.7196733875
888.0	-8.971152574125	20.736269475
890.0	-8.971527356125	20.752772975
892.0	-8.97190307075	20.7691845125
894.0	-8.97227971675	20.78550475
896.0	-8.97265729275	20.8017343
898.0	-8.973035797375	20.8178738
900.0	-8.973415229375	20.833923875
902.0	-8.97379558725	20.84988515
904.0	-8.97417686975	20.865758225
906.0	-8.974559075625	20.881543725
908.0	-8.97494220325	20.89724225
910.0	-8.9753262515	20.9128543875
912.0	-8.975711219125	20.92838075
914.0	-8.976097104499999	20.9438219125
916.0	-8.9764839065	20.959178475
918.0	-8.976871623875	20.9744510125
920.0	-8.977260255	20.9896401
922.0	-8.97764979875	21.0047463
924.0	-8.978040253875	21.0197702
926.0	-8.978431618875	21.0347123375
928.0	-8.9788238925	21.0495733
930.0	-8.979217073375	21.064353625
932.0	-8.979611160375	21.0790538625
934.0	-8.980006152	21.09367455
936.0	-8.980402046875	21.10821625
938.0	-8.980798844	21.1226794875
940.0	-8.98119654175	21.1370647875
942.0	-8.981595139	21.1513726875
944.0	-8.981994634375	21.1656037125
946.0	-8.982395026625	21.179758375
948.0	-8.982796314375	21.1938372
950.0	-8.9831984965	21.2078407
952.0	-8.9836015715	21.2217693625
954.0	-8.984005538125	21.235623725
956.0	-8.98441039525	21.2494042625
958.0	-8.984816141375	21.263111475
960.0	-8.985222775375	21.2767458625
962.0	-8.985630295875	21.2903079
964.0	-8.986038701625	21.3037980875
966.0	-8.986447991375	21.3172169
968.0	-8.98685816375	21.3305648125
970.0	-8.987269217625	21.3438423
972.0	-8.987681151625	21.357049825
974.0	-8.988093964499999	21.370187875
976.0	-8.988507655125	21.3832568875
978.0	-8.988922222	21.396257325
980.0	-8.989337664	21.4091896625
982.0	-8.989753979875	21.422054325
984.0	-8.99017116825	21.4348517875
986.0	-8.990589228	21.447582475
988.0	-8.991008157875	21.460246825
990.0	-8.991427956625	21.4728453
992.0	-8.991848622875	21.4853783125
994.0	-8.9922701555	21.4978463
996.0	-8.99269255325	21.5102496875
998.0	-8.99311581475	21.5225889
1000.0	-8.993539939	21.534864375
